Time,Tendon Disp.,Motor Curr.,Pos x,Pos y,Pos z,Angle x,Angle y,Angle z
0,0,57.78894,157.3784,15.2908,-13.2842,30,5.703,16.376
0.002052546,0.001097533,57.68769,157.3784,15.2908,-13.2842,30.00308,5.703,16.376
0.003988504,0.002132725,57.59218,157.3784,15.2908,-13.2842,30.00598,5.703,16.376
0.006095171,0.003259197,57.48825,157.3784,15.2908,-13.21325,30.01089,5.698112,16.376
0.008382797,0.004482432,57.37539,157.3784,15.2908,-13.1826,30.01715,5.699226,16.37277
0.01004243,0.005369867,57.29352,157.3784,15.2908,-13.1826,30.022,5.703,16.369
0.01195717,0.006393712,57.19906,157.3784,15.2908,-13.1826,30.022,5.703,16.369
0.01407671,0.007527069,57.0945,157.3784,15.2908,-13.20995,30.02442,5.703,16.369
0.01625371,0.008551297,57,157.3784,15.2908,-13.26524,30.02932,5.703,16.369
0.01858521,0.008551297,57,157.3784,15.2908,-13.2842,30.0347,5.703,16.369
0.02029014,0.008551297,57,157.3784,15.2908,-13.2842,30.03887,5.703,16.369
0.02207732,0.008551297,57,157.3784,15.2908,-13.2842,30.04415,5.703108,16.369
0.02423716,0.008551297,57,157.3784,15.2908,-13.2842,30.04847,5.706132,16.369
0.02620173,0.008551297,57,157.3784,15.2908,-13.2842,30.0524,5.708882,16.369
0.02801156,0.008551297,57,157.3784,15.2908,-13.2842,30.05402,5.71,16.369
0.03002286,0.008551297,57,157.3784,15.2908,-13.2842,30.05703,5.71,16.369
0.03191519,0.008551297,57,157.3784,15.2908,-13.2842,30.05987,5.71,16.369
0.03395844,0.008551297,57,157.3784,15.2908,-13.2842,30.06588,5.71,16.369
0.0359416,0.008551297,57,157.3784,15.2908,-13.2842,30.069,5.71,16.369
0.03866911,0.008551297,57,157.3784,15.2908,-13.26154,30.07056,5.71,16.369
0.0432868,0.008551297,57,157.3784,15.2908,-13.1826,30.08115,5.71,16.369
0.04432988,0.008551297,57,157.3784,15.2908,-13.1826,30.08349,5.71,16.369
0.04636788,0.008551297,57,157.3784,15.2908,-13.1826,30.08774,5.713192,16.36626
0.04808044,0.008551297,57,157.3784,15.2908,-13.18532,30.091,5.717,16.363
0.0500803,0.008551297,57,157.3784,15.2908,-13.25305,30.091,5.717,16.363
0.05218506,0.008551297,57,157.3784,15.2908,-13.2842,30.09396,5.717,16.363
0.05408311,0.008551297,57,157.3784,15.2908,-13.2842,30.09871,5.717,16.363
0.05623078,0.008551297,57,157.3784,15.2908,-13.24252,30.10346,5.717,16.363
0.05927277,0.008551297,57,157.3784,15.2908,-13.1826,30.107,5.717,16.363
0.05995774,0.008551297,57,157.3784,15.2908,-13.1826,30.107,5.717,16.363
0.06253338,0.008551297,57,157.3784,15.34273,-13.1826,30.1116,5.717,16.363
0.06397247,0.008551297,57,157.3784,15.39146,-13.1826,30.11592,5.717,16.363
0.06590819,0.008551297,57,157.3784,15.3924,-13.1826,30.11934,5.717,16.363
0.06806564,0.008551297,57,157.3784,15.3924,-13.1826,30.123,5.717,16.363
0.07004309,0.008551297,57,157.3784,15.3924,-13.1826,30.12425,5.717,16.363
0.07226682,0.008551297,57,157.3784,15.3924,-13.1826,30.12692,5.717,16.363
0.07441998,0.008551297,57,157.3784,15.3924,-13.1826,30.12994,5.717,16.36279
0.07637358,0.008551297,57,157.3784,15.3924,-13.1826,30.13434,5.717,16.36181
0.07888508,0.008551297,57.04616,157.3784,15.3924,-13.1826,30.138,5.717,16.361
0.08149529,0.008551297,57.29099,157.3784,15.3924,-13.1826,30.14237,5.717,16.35663
0.08243942,0.008551297,57.37955,157.3784,15.3924,-13.1826,30.14402,5.717,16.35498
0.08401775,0.008551297,57.52759,157.3784,15.3924,-13.1826,30.14805,5.719374,16.354
0.08596325,0.008551297,57.71007,157.3784,15.3924,-13.1826,30.15389,5.723914,16.354
0.08792877,0.008551297,57.89443,157.3784,15.3924,-13.1826,30.154,5.724,16.354
0.09053636,0.008551297,58.13902,157.3784,15.3924,-13.1826,30.15758,5.724,16.354
0.09211564,0.008551297,58.28715,157.3784,15.3924,-13.1826,30.16106,5.724,16.354
0.09396887,0.008551297,58.46098,157.3784,15.3924,-13.1826,30.16198,5.724,16.354
0.09592962,0.008551297,58.6449,157.3784,15.3924,-13.1826,30.16296,5.724,16.354
0.09844327,0.008551297,58.88067,157.3784,15.3924,-13.1826,30.1687,5.724,16.354
0.1010528,0.008551297,59.06943,157.3784,15.3924,-13.1826,30.17411,5.724,16.354
0.1021924,0.008551297,59.1286,157.3784,15.3924,-13.1826,30.17614,5.724,16.354
0.1039562,0.008551297,59.22017,157.3784,15.3924,-13.1826,30.17747,5.724,16.354
0.1062763,0.008551297,59.34063,157.3784,15.3924,-13.1826,30.17964,5.724,16.354
0.1080077,0.008551297,59.43052,157.3784,15.3924,-13.1826,30.18368,5.724,16.354
0.1102684,0.008551297,59.54789,157.3784,15.3924,-13.1826,30.186,5.726959,16.354
0.1123888,0.008551297,59.65799,157.3784,15.3924,-13.1826,30.18678,5.731,16.354
0.1140389,0.008551297,59.74366,157.3784,15.3924,-13.1826,30.19008,5.731,16.354
0.115967,0.008551297,59.84376,157.3784,15.3924,-13.1826,30.19345,5.731,16.354
0.1180422,0.008551297,59.9515,157.3784,15.3924,-13.1826,30.19708,5.731,16.35469
0.1201234,0.00916564,60.05668,157.3784,15.3924,-13.1826,30.201,5.731,16.356
0.1248522,0.01169835,60.29035,157.3784,15.3924,-13.1826,30.20299,5.731,16.356
0.1263876,0.01252071,60.36622,157.3784,15.3924,-13.1826,30.20657,5.731,16.356
0.1280031,0.01338597,60.44605,157.3784,15.3924,-13.1826,30.208,5.731,16.356
0.1299248,0.0144152,60.541,157.3784,15.3924,-13.1826,30.208,5.731,16.356
0.1319678,0.01550942,60.64196,157.3784,15.3924,-13.1826,30.21243,5.731,16.356
0.1343892,0.0168063,60.76161,157.3784,15.3924,-13.1826,30.217,5.731,16.35574
0.1359799,0.01765828,60.84021,157.3784,15.3924,-13.1826,30.217,5.731,16.35468
0.1379468,0.01871177,60.93741,157.3784,15.3924,-13.1826,30.21889,5.731,16.354
0.1416593,0.02053617,61.10573,157.3784,15.3924,-13.1826,30.223,5.731,16.354
0.1422749,0.02082462,61.13234,157.3784,15.3924,-13.1826,30.223,5.731,16.354
0.1443763,0.02180927,61.22318,157.3784,15.3924,-13.1826,30.22644,5.731,16.354
0.1459365,0.02254032,61.29063,157.3784,15.3924,-13.1826,30.23034,5.731,16.354
0.1479654,0.023491,61.37834,157.3784,15.3924,-13.1826,30.233,5.731,16.354
0.1499681,0.0244294,61.46492,157.3784,15.3924,-13.1826,30.23595,5.731,16.354
0.1520693,0.02541393,61.55575,157.3784,15.3924,-13.1826,30.23921,5.731,16.35384
0.1541042,0.02636741,61.64372,157.3784,15.3924,-13.1826,30.24531,5.731,16.34909
0.156749,0.02760665,61.75805,157.3784,15.3924,-13.1826,30.248,5.731,16.347
0.1584134,0.02838653,61.83,157.3784,15.3924,-13.1826,30.24872,5.731723,16.347
0.1599822,0.0291216,61.89782,157.3784,15.3924,-13.1826,30.25147,5.734469,16.347
0.1619999,0.03006704,61.98504,157.3784,15.3924,-13.1826,30.255,5.738,16.347
0.1642907,0.03195855,62.15956,157.3784,15.3924,-13.1826,30.26187,5.738,16.347
0.1659982,0.03347701,62.29965,157.3784,15.3924,-13.1826,30.26633,5.738,16.347
0.1680002,0.03525732,62.4639,157.3784,15.3924,-13.1826,30.271,5.738,16.347
0.1700339,0.03706582,62.63075,157.3784,15.3924,-13.1826,30.27507,5.738,16.347
0.1719813,0.03879757,62.79052,157.3784,15.3924,-13.1826,30.27921,5.738,16.347
0.1741173,0.04069702,62.96577,157.3784,15.3924,-13.1826,30.28401,5.738,16.347
0.17626,0.04260241,63.14156,157.3784,15.3924,-13.1826,30.2902,5.738,16.347
0.1779075,0.04406745,63.27672,157.3784,15.3924,-13.1826,30.29569,5.738,16.347
0.1804545,0.04633242,63.48569,157.3784,15.3924,-13.1826,30.30091,5.743727,16.347
0.1819873,0.04769547,63.61145,157.3784,15.3924,-13.1826,30.30644,5.745,16.347
0.1839838,0.0494709,63.77525,157.3784,15.43404,-13.1826,30.3133,5.745,16.347
0.1861794,0.05142336,63.95538,157.3784,15.5194,-13.1826,30.3189,5.745,16.347
0.1886494,0.05373447,64.25291,157.3784,15.5194,-13.1826,30.33125,5.745,16.347
0.1905379,0.05552624,64.50087,157.4272,15.5194,-13.1826,30.33915,5.745,16.347
0.1923468,0.05724245,64.73838,157.4847,15.5194,-13.1826,30.34639,5.745,16.347
0.1940279,0.05883742,64.95911,157.5054,15.5194,-13.1826,30.35448,5.745,16.347
0.1960113,0.06071921,65.21953,157.5054,15.5194,-13.1826,30.36508,5.745,16.347
0.1983848,0.06297107,65.53116,157.5054,15.5194,-13.1826,30.38249,5.745,16.347
0.2000604,0.06456084,65.75117,157.5054,15.5194,-13.1826,30.39283,5.745,16.34514
0.2019765,0.06637884,66.00277,157.5054,15.5194,-13.1826,30.40337,5.745,16.34179
0.20451,0.06878249,66.33541,157.5054,15.5194,-13.1826,30.42158,5.745,16.34
0.2073169,0.07144559,66.70395,157.5054,15.5194,-13.1826,30.44761,5.745,16.33737
0.2083757,0.07245016,66.84298,157.5054,15.5194,-13.1826,30.45855,5.745,16.33525
0.2114704,0.07573539,66.30555,157.5054,15.58215,-13.1826,30.48476,5.749323,16.32968
0.2121272,0.07647934,66.06532,157.5054,15.59883,-13.1826,30.49002,5.750472,16.32853
0.214016,0.07861858,65.37454,157.5054,15.621,-13.1826,30.50987,5.75437,16.327
0.2163687,0.08128332,64.51407,157.5054,15.621,-13.1826,30.53991,5.75986,16.32614
0.2179642,0.08309041,63.93054,157.5054,15.621,-13.1826,30.56119,5.763583,16.32242
0.220171,0.08558988,63.12344,157.5054,15.621,-13.1826,30.58983,5.768732,16.32
0.2224131,0.08812932,62.30342,157.5054,15.621,-13.1826,30.6163,5.773,16.32
0.22404,0.08997206,61.70838,157.5054,15.621,-13.1826,30.62932,5.773,16.32
0.2262948,0.09252581,60.88375,157.5054,15.63347,-13.1826,30.64863,5.773,16.3198
0.2281837,0.09466532,60.19288,157.5054,15.71344,-13.1826,30.67193,5.773,16.31854
0.2300413,0.09761644,60.48861,157.5054,15.748,-13.1826,30.69553,5.773,16.31436
0.2319636,0.1010183,61.19478,157.5054,15.748,-13.1826,30.71988,5.773,16.311
0.2341835,0.1049466,62.01025,157.5054,15.748,-13.1826,30.74751,5.773428,16.31063
0.2363317,0.108748,62.79935,157.5054,15.748,-13.1826,30.77687,5.778441,16.30634
0.2383761,0.1123658,63.55036,157.5054,15.748,-13.1826,30.80618,5.783211,16.305
0.2402802,0.1157351,64.24978,157.5125,15.75512,-13.1826,30.83287,5.78749,16.30451
0.24212,0.1189909,64.92564,157.5592,15.80185,-13.1826,30.85173,5.79071,16.30129
0.2448854,0.1238846,65.9415,157.607,15.8496,-13.1826,30.88221,5.794,16.298
0.2458963,0.1256735,66.31284,157.607,15.8496,-13.1826,30.89502,5.794,16.298
0.2480388,0.1294647,67.09984,157.607,15.8496,-13.1826,30.92319,5.796423,16.298
0.2499464,0.1328403,67.80058,157.607,15.8496,-13.1826,30.94927,5.800875,16.298
0.2521691,0.1367738,68.6171,157.607,15.8496,-13.1826,30.97386,5.801,16.298
0.2539785,0.1397916,68.81959,157.607,15.8496,-13.1826,30.99376,5.801,16.298
0.2568929,0.1442497,68.13408,157.607,15.94757,-13.1826,31.03353,5.801,16.298
0.2584577,0.1466432,67.76604,157.607,15.9512,-13.1826,31.05298,5.797599,16.298
0.2599416,0.1489131,67.417,157.607,15.9512,-13.1826,31.07128,5.794136,16.298
0.2623694,0.1526268,66.84595,157.607,15.9512,-13.1826,31.09629,5.794,16.298
0.2645354,0.1559402,66.33647,157.607,15.9512,-13.1826,31.12085,5.792751,16.29675
0.2671039,0.1598691,65.73234,157.607,15.9512,-13.1826,31.15959,5.787,16.291
0.2682922,0.1616868,65.45284,157.6129,15.95862,-13.1826,31.18609,5.787409,16.29012
0.2704964,0.1650584,64.93439,157.6577,16.01461,-13.1826,31.21695,5.790495,16.28351
0.2722919,0.167805,64.51206,157.6942,16.06021,-13.1826,31.24209,5.793009,16.27812
0.2749498,0.1722157,64.0997,157.7086,16.0782,-13.1826,31.2793,5.797412,16.27259
0.2766175,0.1759633,64.44545,157.7086,16.0782,-13.1826,31.30264,5.80033,16.26967
0.278084,0.1792588,64.74949,157.7086,16.0782,-13.1826,31.3312,5.808,16.26885
0.2803645,0.1843833,65.22228,157.7086,16.0782,-13.1826,31.36369,5.808,16.26486
0.2819707,0.1879927,65.55529,157.7086,16.0782,-13.1826,31.38658,5.808,16.26205
0.2840028,0.192559,65.97657,157.7086,16.14602,-13.1826,31.42238,5.812673,16.25733
0.2859516,0.1969382,66.3806,157.7086,16.1798,-13.1826,31.45491,5.815,16.255
0.2882307,0.2020595,66.8531,157.7086,16.1798,-13.1826,31.49138,5.815538,16.255
0.2908456,0.2079357,67.39524,157.7086,16.1798,-13.1826,31.54106,5.82164,16.255
0.2920508,0.210644,67.6451,157.7086,16.21316,-13.1826,31.55792,5.822,16.2529
0.2939305,0.2148679,68.0348,157.7086,16.27284,-13.1826,31.58283,5.822,16.24914
0.2959123,0.2193211,68.44565,157.7086,16.3068,-13.1826,31.61616,5.824128,16.24487
0.2980542,0.2241344,68.88972,157.7109,16.3068,-13.1826,31.66103,5.829,16.23987
0.3005641,0.2303425,69.46249,157.8171,16.3068,-13.1826,31.70871,5.829,16.23402
0.3022251,0.2345523,69.85088,157.8356,16.33792,-13.1826,31.73629,5.831144,16.23086
0.3044329,0.2401477,70.36711,157.8356,16.39399,-13.1826,31.77107,5.835007,16.22699
0.3066559,0.2457817,70.88691,157.8356,16.4084,-13.1826,31.81477,5.843727,16.22269
0.3084395,0.2503021,71.30396,157.8356,16.4084,-13.1826,31.85223,5.851025,16.22
0.310406,0.255286,71.76377,157.8356,16.4084,-13.1826,31.89352,5.855614,16.22
0.3119588,0.2592214,72.12686,157.8356,16.44087,-13.1826,31.9239,5.857,16.22
0.3147175,0.2662132,72.77192,157.8356,16.51,-13.1826,31.97276,5.858255,16.22
0.3162563,0.2701131,73.13172,157.8356,16.51,-13.1826,31.99584,5.860948,16.22
0.3184373,0.2756407,73.64171,157.8356,16.51,-13.1826,32.03016,5.86298,16.22
0.3201804,0.279935,73.95263,157.8356,16.51,-13.1826,32.0627,5.858913,16.22
0.3220396,0.2835585,73.53475,157.8708,16.55401,-13.1826,32.09983,5.857,16.21757
0.3242259,0.2878196,73.04334,157.9372,16.637,-13.1826,32.14456,5.857,16.21249
0.326216,0.2916982,72.59604,157.9372,16.637,-13.1826,32.1759,5.857,16.20801
0.3281059,0.2953816,72.17125,157.9372,16.64059,-13.1826,32.20622,5.857,16.20375
0.3301752,0.2994145,71.70615,157.9372,16.71066,-13.1826,32.24968,5.857,16.19892
0.3319943,0.3029599,71.29728,157.9372,16.7386,-13.1826,32.28589,5.857,16.197
0.3359742,0.3107167,70.40273,157.9372,16.7386,-13.1826,32.37043,5.857,16.18213
0.3366797,0.3120917,70.24416,157.9372,16.7386,-13.1826,32.38663,5.858585,16.18041
0.3392067,0.3170167,69.67618,157.9372,16.74734,-13.1826,32.44496,5.864482,16.17459
0.3402059,0.3189641,69.45159,157.9372,16.78964,-13.1826,32.46894,5.866813,16.17259
0.3420064,0.3224733,69.04689,157.9374,16.8656,-13.1826,32.5121,5.871011,16.16899
0.3441198,0.328414,69.51057,158.0045,16.8656,-13.1826,32.54538,5.874709,16.16529
0.3462701,0.3346615,70.08697,158.0642,16.8656,-13.1826,32.58121,5.87863,16.16137
0.3479514,0.3395465,70.53766,158.0642,16.8656,-13.1826,32.61988,5.882553,16.15745
0.3501811,0.3460247,71.13534,158.0642,16.9056,-13.1826,32.67038,5.885,16.155
0.3523738,0.3523955,71.72311,158.0642,16.9672,-13.1826,32.71679,5.885,16.15416
0.3540444,0.3572493,72.17093,158.0642,16.9672,-13.1826,32.74269,5.885,16.1504
0.3560319,0.3630237,72.70367,158.0642,16.96827,-13.1826,32.77374,5.885074,16.14594
0.3586524,0.3706373,73.4061,158.0642,17.05702,-13.1826,32.83488,5.891188,16.1407
0.3602815,0.3753706,73.84279,158.0642,17.0688,-13.1826,32.87375,5.892,16.13701
0.3619802,0.3803061,74.29815,158.0642,17.0688,-13.1826,32.91453,5.892,16.13305
0.3642004,0.3867566,74.89327,158.1387,17.0688,-13.1826,32.96781,5.897134,16.12787
0.3684821,0.3998056,75.36572,158.1658,17.17935,-13.1826,33.05055,5.905093,16.11294
0.3699508,0.4043029,75.50403,158.1658,17.1958,-13.1826,33.09517,5.913605,16.111
0.3706267,0.4063726,75.56768,158.1658,17.1958,-13.1826,33.10843,5.916193,16.1099
0.3721561,0.411056,75.71171,158.1658,17.1958,-13.1826,33.13635,5.921546,16.10723
0.3743739,0.4178472,75.92056,158.1658,17.20846,-13.1826,33.17897,5.928872,16.104
0.3761973,0.4234308,76.09228,158.1658,17.27021,-13.1826,33.22273,5.933127,16.104
0.3779607,0.4288304,76.25834,158.1658,17.2974,-13.1826,33.26505,5.937241,16.104
0.3802788,0.4359289,76.47664,158.1658,17.2974,-13.1826,33.31909,5.942488,16.10351
0.3821707,0.4417221,76.6548,158.1658,17.2974,-13.1826,33.35361,5.945799,16.1002
0.3842528,0.4480978,76.85087,158.1744,17.3081,-13.1826,33.39357,5.949,16.097
0.3859277,0.4532716,77.01712,158.2311,17.379,-13.1826,33.43712,5.949,16.097
0.3882802,0.4616362,77.4581,158.2674,17.4244,-13.1826,33.49615,5.949,16.097
0.3903134,0.4688657,77.83924,158.2674,17.43501,-13.1826,33.54615,5.949,16.09564
0.3920412,0.4750093,78.16313,158.2674,17.49352,-13.1826,33.59107,5.949,16.08816
0.3940055,0.4819938,78.53135,158.2674,17.526,-13.1826,33.63837,5.949,16.08174
0.3970299,0.4927473,79.09828,158.2687,17.52701,-13.1826,33.70596,5.949,16.07486
0.4007421,0.5059466,79.79415,158.3944,17.6276,-13.1826,33.82772,5.952462,16.05778
0.4013634,0.5081558,79.91061,158.3944,17.6276,-13.1826,33.84926,5.955362,16.05509
0.4019656,0.5102972,80.02351,158.3944,17.6276,-13.1826,33.87014,5.958172,16.05248
0.404448,0.5191238,80.48885,158.3944,17.67357,-13.1826,33.94147,5.965534,16.04474
0.4065185,0.5264855,80.87696,158.3944,17.73931,-13.1826,33.9922,5.969157,16.04008
0.4097888,0.5362085,81.13634,158.3944,17.7546,-13.1826,34.09975,5.983014,16.03249
0.4109941,0.5396153,81.19921,158.3944,17.78826,-13.1826,34.13848,5.984,16.03001
0.4119489,0.5423144,81.24901,158.3944,17.8206,-13.1826,34.16871,5.984,16.0281
0.4140201,0.548169,81.35704,158.4289,17.8562,-13.13942,34.23498,5.98638,16.02362
0.4163775,0.554833,81.48,158.496,17.86818,-13.0556,34.3074,5.991,16.01834
0.4179878,0.5593848,81.56399,158.496,17.91931,-13.0556,34.34323,5.991,16.01552
0.4201822,0.5655878,81.67845,158.496,17.9832,-13.0556,34.39389,5.991,16.01145
0.4221299,0.5710932,81.78004,158.496,17.9832,-13.0556,34.45686,5.991,16.00561
0.4289222,0.5902642,81.73244,158.5888,18.0848,-13.0556,34.65897,6.003114,15.97831
0.4307859,0.5955114,81.53879,158.623,18.16465,-13.0556,34.72394,6.010501,15.96928
0.4320254,0.5990013,81.41,158.623,18.1864,-13.0556,34.75912,6.015589,15.96621
0.4326675,0.600809,81.34329,158.623,18.1864,-13.0556,34.77485,6.017836,15.96508
0.4340367,0.604664,81.20103,158.623,18.1864,-13.0556,34.8084,6.022628,15.96269
0.4360743,0.6104006,80.98932,158.623,18.20913,-13.07833,34.86583,6.029759,15.95849
0.4379873,0.6157867,80.79055,158.623,18.24963,-13.11883,34.92609,6.036455,15.95403
0.4406807,0.6233699,80.5107,158.623,18.30664,-13.17584,35.01094,6.045882,15.94775
0.4421728,0.6275706,80.35568,158.623,18.35311,-13.13296,35.0554,6.049736,15.947
0.4440787,0.6329367,80.15765,158.625,18.415,-13.0556,35.11073,6.054138,15.94688
0.4461732,0.6391546,80.07695,158.6782,18.415,-13.0556,35.15681,6.057803,15.94374
0.4488204,0.6480794,80.42983,158.7246,18.44278,-13.0556,35.21942,6.061,15.941
0.4499037,0.6517319,80.57426,158.7246,18.47947,-13.0556,35.24903,6.061,15.941
0.4519846,0.6587477,80.85166,158.7246,18.5166,-13.0556,35.30788,6.061,15.9387
0.4540546,0.6657264,81.1276,158.726,18.51833,-13.0556,35.3682,6.060904,15.93397
0.4559758,0.6722036,81.38371,158.7748,18.57933,-13.0556,35.41047,6.057543,15.93301
0.4580367,0.6791518,81.65844,158.8262,18.6436,-13.0556,35.4565,6.054,15.93174
0.4612591,0.6900162,82.08802,158.8262,18.6436,-13.0556,35.55309,6.054,15.91722
0.4623644,0.6937427,82.23536,158.8262,18.6436,-13.0556,35.57906,6.054,15.91391
0.4644933,0.70092,82.51915,158.8262,18.69417,-13.0556,35.64278,6.057484,15.90404
0.4659913,0.7059704,82.71885,158.8262,18.7449,-13.0556,35.69171,6.060979,15.89605
0.468684,0.7153823,83.091,158.8262,18.7452,-13.0556,35.78236,6.073525,15.88974
0.4699423,0.7203442,83.28719,158.8661,18.78509,-13.0556,35.82378,6.077199,15.88492
0.4723814,0.7299614,83.66745,158.9532,18.8722,-13.0556,35.90091,6.082667,15.87514
0.4752488,0.7412679,84.11451,158.9532,18.8722,-13.0556,35.97547,6.087685,15.86869
0.4759729,0.744123,84.2274,158.9532,18.8722,-13.0556,35.99429,6.088952,15.86706
0.4779637,0.7519728,84.53778,158.9532,18.9387,-13.0556,36.06111,6.089,15.86242
0.4799633,0.7598574,84.84954,158.9532,19.00642,-13.0556,36.12939,6.089,15.85807
0.4823825,0.7693966,85.22672,158.9629,19.0754,-13.0556,36.21023,6.089,15.85314
0.4839926,0.775745,85.47774,159.0038,19.0754,-13.0556,36.2533,6.089,15.84952
0.4859796,0.7835798,85.78753,159.0543,19.0754,-13.0556,36.30645,6.089,15.84505
0.4880395,0.791607,86.13601,159.0548,19.1272,-13.0556,36.37389,6.091855,15.83684
0.4924769,0.8084976,87.00175,159.0548,19.2024,-13.0556,36.52662,6.099446,15.81712
0.4933968,0.8119988,87.1812,159.0548,19.2024,-13.0556,36.56127,6.101592,15.81222
0.4949918,0.81807,87.49239,159.0548,19.30315,-13.0556,36.64052,6.109942,15.79611
0.4960332,0.822034,87.69557,159.0876,19.304,-13.0556,36.67122,6.111808,15.79187
0.4981995,0.8302797,88.1182,159.1564,19.304,-13.0556,36.73458,6.115599,15.7832
0.5000405,0.8372875,88.47739,159.1818,19.34805,-13.0556,36.80066,6.12463,15.77549
0.5022745,0.8457909,88.91324,159.1818,19.431,-13.0556,36.89207,6.140281,15.76636
0.5040107,0.8523994,89.25196,159.1818,19.431,-13.0556,36.96209,6.148383,15.76231
0.5059762,0.8598809,89.63543,159.2066,19.45579,-13.0556,37.02957,6.156416,15.75829
0.5088024,0.8706385,90.18682,159.2784,19.52758,-13.0556,37.10942,6.166308,15.75335
0.51018,0.8758821,90.45559,159.2834,19.5326,-13.0556,37.15866,6.169753,15.753
